Summary
[Data Information]
Data is:,Measurement Data
Dataset Name:,RawData
Sample Name:,Blank_1
Sample ID:,1
Edinburgh
Analyst:,Alexandra
Date/Time:,19/10/2023 11:16:47
Comments:,Blank 1 test
Parameter File Name:,Uvvis_confirm_alexandra.vspm
Report File Name
[Software Information]
Software Name:,LabSolutions UV-Vis
Version:,1.12
[Instrument Information]
Instrument Name:,UV
Instrument Type:,UV-1900 Series
Model (S/N):,1900 (A12535951280)

Parameter
[Measurement]
Start:,665 nm
End:,250 nm
Data Interval:,1.0
Scan Speed:,Medium speed
Spectrum Type:,Absorbance
[Accessories]
Accessories:,None
[Advanced]
Light Source Switch Wavelength:,340.00
S/R Switch:,Standard
[Repeat]
Repeat Measurement:,OFF
[Post-processing]
Spectrum Transformation:,OFF
Data Processing Table:,OFF
Print:,OFF

Wavelength (nm),Absorbance
250.0,0.380
251.0,0.056
252.0,0.214
253.0,0.141
254.0,0.290
255.0,0.054
256.0,-0.052
257.0,0.232
258.0,0.097
259.0,0.537
260.0,0.518
261.0,0.227
262.0,0.318
263.0,0.352
264.0,0.418
265.0,0.648
266.0,0.310
267.0,0.060
268.0,0.037
269.0,0.677
270.0,0.089
271.0,-0.016
272.0,0.229
273.0,0.292
274.0,0.182
275.0,0.725
276.0,0.282
277.0,0.598
278.0,0.318
279.0,0.107
280.0,0.492
281.0,-0.004
282.0,0.035
283.0,0.026
284.0,0.080
285.0,0.014
286.0,0.018
287.0,0.008
288.0,0.004
289.0,-0.001
290.0,-0.003
291.0,-0.003
292.0,-0.002
293.0,0.003
294.0,0.002
295.0,0.003
296.0,0.002
297.0,0.001
298.0,-0.002
299.0,-0.002
300.0,-0.003
301.0,-0.002
302.0,-0.001
303.0,0.000
304.0,0.001
305.0,0.000
306.0,-0.000
307.0,-0.000
308.0,-0.001
309.0,-0.000
310.0,-0.000
311.0,0.000
312.0,0.000
313.0,0.000
314.0,0.000
315.0,0.000
316.0,0.000
317.0,-0.000
318.0,-0.000
319.0,-0.000
320.0,-0.000
321.0,0.000
322.0,0.000
323.0,0.000
324.0,0.000
325.0,0.000
326.0,0.000
327.0,-0.000
328.0,-0.000
329.0,-0.000
330.0,-0.000
331.0,0.000
332.0,-0.000
333.0,0.000
334.0,0.000
335.0,-0.000
336.0,0.000
337.0,-0.000
338.0,-0.000
339.0,-0.000
340.0,0.000
341.0,0.000
342.0,0.000
343.0,0.000
344.0,0.000
345.0,0.000
346.0,-0.000
347.0,0.000
348.0,0.000
349.0,0.000
350.0,0.000
351.0,0.000
352.0,-0.000
353.0,-0.000
354.0,0.000
355.0,0.000
356.0,0.000
357.0,0.000
358.0,0.000
359.0,0.000
360.0,-0.000
361.0,-0.000
362.0,0.000
363.0,-0.000
364.0,0.000
365.0,0.000
366.0,0.000
367.0,-0.000
368.0,0.000
369.0,-0.000
370.0,-0.000
371.0,0.000
372.0,0.000
373.0,-0.000
374.0,-0.000
375.0,0.000
376.0,0.000
377.0,0.000
378.0,-0.000
379.0,0.000
380.0,0.000
381.0,0.000
382.0,0.000
383.0,0.000
384.0,0.000
385.0,0.000
386.0,0.000
387.0,0.000
388.0,0.000
389.0,0.000
390.0,0.000
391.0,0.000
392.0,0.000
393.0,-0.000
394.0,-0.000
395.0,0.000
396.0,0.000
397.0,0.000
398.0,-0.000
399.0,0.000
400.0,0.000
401.0,0.000
402.0,0.000
403.0,-0.000
404.0,-0.000
405.0,-0.000
406.0,-0.000
407.0,0.000
408.0,-0.000
409.0,0.000
410.0,0.000
411.0,-0.000
412.0,-0.000
413.0,-0.000
414.0,0.000
415.0,0.000
416.0,-0.000
417.0,-0.000
418.0,0.000
419.0,-0.000
420.0,-0.000
421.0,0.000
422.0,0.000
423.0,0.000
424.0,-0.000
425.0,-0.000
426.0,0.000
427.0,0.000
428.0,-0.000
429.0,0.000
430.0,-0.000
431.0,-0.000
432.0,-0.000
433.0,-0.000
434.0,0.000
435.0,0.000
436.0,0.000
437.0,-0.000
438.0,-0.000
439.0,-0.000
440.0,0.000
441.0,-0.000
442.0,0.000
443.0,0.000
444.0,0.000
445.0,0.000
446.0,-0.000
447.0,0.000
448.0,-0.000
449.0,-0.000
450.0,0.000
451.0,-0.000
452.0,-0.000
453.0,0.000
454.0,-0.000
455.0,-0.000
456.0,-0.000
457.0,0.000
458.0,-0.000
459.0,-0.000
460.0,-0.000
461.0,0.000
462.0,-0.000
463.0,-0.000
464.0,-0.000
465.0,-0.000
466.0,0.000
467.0,0.000
468.0,-0.000
469.0,-0.000
470.0,-0.000
471.0,-0.000
472.0,0.000
473.0,0.000
474.0,0.000
475.0,0.000
476.0,-0.000
477.0,0.000
478.0,-0.000
479.0,-0.000
480.0,-0.000
481.0,0.000
482.0,0.000
483.0,-0.000
484.0,0.000
485.0,-0.000
486.0,-0.000
487.0,-0.000
488.0,-0.000
489.0,-0.000
490.0,-0.000
491.0,-0.000
492.0,0.000
493.0,-0.000
494.0,-0.000
495.0,-0.000
496.0,-0.000
497.0,-0.000
498.0,-0.000
499.0,-0.000
500.0,-0.000
501.0,-0.000
502.0,-0.000
503.0,-0.000
504.0,-0.000
505.0,0.000
506.0,-0.000
507.0,-0.000
508.0,-0.000
509.0,-0.000
510.0,-0.000
511.0,-0.000
512.0,0.000
513.0,-0.000
514.0,-0.000
515.0,-0.000
516.0,-0.000
517.0,-0.000
518.0,-0.000
519.0,-0.000
520.0,-0.000
521.0,-0.000
522.0,0.000
523.0,-0.000
524.0,-0.000
525.0,0.000
526.0,-0.000
527.0,0.000
528.0,-0.000
529.0,0.000
530.0,-0.000
531.0,-0.000
532.0,-0.000
533.0,-0.000
534.0,-0.000
535.0,-0.000
536.0,-0.000
537.0,0.000
538.0,0.000
539.0,-0.000
540.0,-0.000
541.0,-0.000
542.0,-0.000
543.0,0.000
544.0,-0.000
545.0,0.000
546.0,0.000
547.0,-0.000
548.0,0.000
549.0,0.000
550.0,0.000
551.0,-0.000
552.0,-0.000
553.0,0.000
554.0,-0.000
555.0,0.000
556.0,-0.000
557.0,0.000
558.0,-0.000
559.0,0.000
560.0,-0.000
561.0,0.000
562.0,-0.000
563.0,0.000
564.0,0.000
565.0,0.000
566.0,0.000
567.0,0.000
568.0,-0.000
569.0,0.000
570.0,-0.000
571.0,0.000
572.0,0.000
573.0,0.000
574.0,0.000
575.0,-0.000
576.0,0.000
577.0,0.000
578.0,-0.000
579.0,-0.000
580.0,-0.000
581.0,0.000
582.0,0.000
583.0,0.000
584.0,0.000
585.0,0.000
586.0,-0.000
587.0,0.000
588.0,0.000
589.0,0.000
590.0,-0.000
591.0,0.000
592.0,0.000
593.0,0.000
594.0,-0.000
595.0,-0.000
596.0,-0.000
597.0,0.000
598.0,-0.000
599.0,0.000
600.0,0.000
601.0,0.000
602.0,0.000
603.0,-0.000
604.0,-0.000
605.0,0.000
606.0,0.000
607.0,0.000
608.0,0.000
609.0,0.000
610.0,0.000
611.0,0.000
612.0,0.000
613.0,0.000
614.0,0.000
615.0,0.000
616.0,0.000
617.0,0.000
618.0,0.000
619.0,0.000
620.0,0.000
621.0,0.000
622.0,0.000
623.0,0.000
624.0,0.000
625.0,0.000
626.0,0.000
627.0,0.000
628.0,0.000
629.0,0.000
630.0,0.000
631.0,0.000
632.0,0.000
633.0,0.000
634.0,0.000
635.0,0.000
636.0,-0.000
637.0,-0.000
638.0,0.000
639.0,0.000
640.0,0.000
641.0,0.000
642.0,0.000
643.0,0.000
644.0,0.000
645.0,0.000
646.0,0.000
647.0,0.000
648.0,0.000
649.0,0.000
650.0,0.000
651.0,0.000
652.0,0.000
653.0,0.000
654.0,0.000
655.0,0.000
656.0,0.000
657.0,0.000
658.0,0.000
659.0,0.000
660.0,0.000
661.0,0.000
662.0,0.000
663.0,0.000
664.0,0.000
665.0,0.000
